  Z(km)   F(z)   MinP(kg/m^3) RecP(kg/m^3) MaxP(kg/m^3)  MinT(K)  RecT(K)  MaxT(K)  MinXCH4    RecXCH4      MaxXCH4      MinXAr       RecXAr        MaxXAr       MinXH2       RecXH2       MaxXH2
   0.00 1.034700 5.434072e+00 5.427700e+00 5.400403e+00   78.85   91.43  104.45 1.200000e-02 5.670000e-02 8.505000e-02 5.000000e-05 3.390000e-05 2.000000e-05 1.000000e-03 3.000000e-03 5.500000e-03
   1.00 1.034300 5.228077e+00 5.232683e+00 5.215114e+00   77.76   90.17  103.01 1.200000e-02 5.690000e-02 8.535000e-02 5.000000e-05 3.390000e-05 2.000000e-05 1.000000e-03 3.000000e-03 5.500000e-03
   2.00 1.033900 5.016182e+00 5.030853e+00 5.022383e+00   76.85   89.11  101.80 1.200000e-02 5.720000e-02 8.580000e-02 5.000000e-05 3.390000e-05 2.000000e-05 1.000000e-03 3.000000e-03 5.500000e-03
   3.00 1.033500 4.808017e+00 4.831869e+00 4.831833e+00   75.99   88.11  100.66 1.200000e-02 5.760000e-02 8.640000e-02 5.000000e-05 3.390000e-05 2.000000e-05 1.000000e-03 3.000000e-03 5.500000e-03
   4.00 1.032700 4.607732e+00 4.642934e+00 4.652268e+00   75.10   87.09   99.49 1.200000e-02 5.660000e-02 8.490000e-02 5.000000e-05 3.390000e-05 2.000000e-05 1.000000e-03 3.000000e-03 5.500000e-03
   5.00 1.031700 4.399398e+00 4.446130e+00 4.464773e+00   74.47   86.35   98.65 1.200000e-02 5.490000e-02 8.235000e-02 5.000000e-05 3.390000e-05 2.000000e-05 1.000000e-03 3.000000e-03 5.500000e-03
   6.00 1.030900 4.201340e+00 4.258796e+00 4.286131e+00   73.80   85.58   97.76 1.200000e-02 5.300000e-02 7.950000e-02 5.000000e-05 3.390000e-05 2.000000e-05 1.000000e-03 3.000000e-03 5.500000e-03
   7.00 1.030071 4.011133e+00 4.079379e+00 4.115271e+00   73.13   84.79   96.87 1.200000e-02 5.040000e-02 7.560000e-02 5.000000e-05 3.390000e-05 2.000000e-05 1.000000e-03 3.000000e-03 5.500000e-03
   8.00 1.029200 3.839643e+00 3.919675e+00 3.964515e+00   72.23   83.75   95.68 1.200000e-02 4.660000e-02 6.990000e-02 5.000000e-05 3.390000e-05 2.000000e-05 1.000000e-03 3.000000e-03 5.500000e-03
   9.00 1.028351 3.652794e+00 3.743143e+00 3.795996e+00   71.75   83.20   95.05 1.200000e-02 4.250000e-02 6.375000e-02 5.000000e-05 3.390000e-05 2.000000e-05 1.000000e-03 3.000000e-03 5.500000e-03
  10.00 1.027500 3.474283e+00 3.569970e+00 3.627983e+00   71.28   82.65   94.42 1.200000e-02 4.070000e-02 6.105000e-02 5.000000e-05 3.390000e-05 2.000000e-05 1.000000e-03 3.000000e-03 5.500000e-03
  11.00 1.026611 3.319353e+00 3.422641e+00 3.486919e+00   70.46   81.70   93.34 1.200000e-02 3.710000e-02 5.565000e-02 5.000000e-05 3.390000e-05 2.000000e-05 1.000000e-03 3.000000e-03 5.500000e-03
  12.00 1.025700 3.156361e+00 3.263566e+00 3.331933e+00   69.95   81.11   92.66 1.200000e-02 3.500000e-02 5.250000e-02 5.000000e-05 3.390000e-05 2.000000e-05 1.000000e-03 3.000000e-03 5.500000e-03
  13.00 1.024791 3.001217e+00 3.111474e+00 3.183297e+00   69.42   80.50   91.96 1.200000e-02 3.300000e-02 4.950000e-02 5.000000e-05 3.390000e-05 2.000000e-05 1.000000e-03 3.000000e-03 5.500000e-03
  14.00 1.023900 2.856831e+00 2.969859e+00 3.044858e+00   68.80   79.77   91.13 1.200000e-02 3.080000e-02 4.620000e-02 5.000000e-05 3.390000e-05 2.000000e-05 1.000000e-03 3.000000e-03 5.500000e-03
  15.00 1.023036 2.720842e+00 2.835604e+00 2.913085e+00   68.11   78.98   90.22 1.200000e-02 2.900000e-02 4.350000e-02 5.000000e-05 3.390000e-05 2.000000e-05 1.000000e-03 3.000000e-03 5.500000e-03
  16.00 1.022200 2.580858e+00 2.696049e+00 2.775100e+00   67.67   78.47   89.65 1.200000e-02 2.750000e-02 4.125000e-02 5.000000e-05 3.390000e-05 2.000000e-05 1.000000e-03 3.000000e-03 5.500000e-03
  17.00 1.021390 2.456523e+00 2.572028e+00 2.652509e+00   66.99   77.67   88.74 1.200000e-02 2.610000e-02 3.915000e-02 5.000000e-05 3.390000e-05 2.000000e-05 1.000000e-03 3.000000e-03 5.500000e-03
  18.00 1.020600 2.333993e+00 2.448853e+00 2.530086e+00   66.39   76.98   87.95 1.200000e-02 2.510000e-02 3.765000e-02 5.000000e-05 3.390000e-05 2.000000e-05 1.000000e-03 3.000000e-03 5.500000e-03
  19.00 1.019816 2.217389e+00 2.331254e+00 2.412924e+00   65.78   76.27   87.13 1.200000e-02 2.420000e-02 3.630000e-02 5.000000e-05 3.390000e-05 2.000000e-05 1.000000e-03 3.000000e-03 5.500000e-03
  20.00 1.019000 2.108365e+00 2.221223e+00 2.303236e+00   65.08   75.47   86.21 1.200000e-02 2.320000e-02 3.480000e-02 5.000000e-05 3.390000e-05 2.000000e-05 1.000000e-03 3.000000e-03 5.500000e-03
  21.00 1.018134 2.000339e+00 2.111663e+00 2.193584e+00   64.50   74.79   85.44 1.200000e-02 2.230000e-02 3.345000e-02 5.000000e-05 3.390000e-05 2.000000e-05 1.000000e-03 3.000000e-03 5.500000e-03
  22.00 1.017300 1.896181e+00 2.005552e+00 2.087027e+00   63.95   74.16   84.72 1.200000e-02 2.160000e-02 3.240000e-02 5.000000e-05 3.390000e-05 2.000000e-05 1.000000e-03 3.000000e-03 5.500000e-03
  23.00 1.016574 1.797143e+00 1.904597e+00 1.985553e+00   63.39   73.51   83.98 1.200000e-02 2.070000e-02 3.105000e-02 5.000000e-05 3.390000e-05 2.000000e-05 1.000000e-03 3.000000e-03 5.500000e-03
  24.00 1.015900 1.702577e+00 1.807654e+00 1.887735e+00   62.84   72.86   83.24 1.200000e-02 2.020000e-02 3.030000e-02 5.000000e-05 3.390000e-05 2.000000e-05 1.000000e-03 3.000000e-03 5.500000e-03
  25.00 1.015208 1.611060e+00 1.713882e+00 1.793053e+00   62.33   72.27   82.57 1.200000e-02 1.930000e-02 2.895000e-02 5.000000e-05 3.390000e-05 2.000000e-05 1.000000e-03 3.000000e-03 5.500000e-03
  26.00 1.014500 1.523664e+00 1.623826e+00 1.701769e+00   61.83   71.70   81.91 1.200000e-02 1.880000e-02 2.820000e-02 5.000000e-05 3.390000e-05 2.000000e-05 1.000000e-03 3.000000e-03 5.500000e-03
  27.00 1.013792 1.440917e+00 1.538464e+00 1.615135e+00   61.32   71.10   81.23 1.200000e-02 1.820000e-02 2.730000e-02 5.000000e-05 3.390000e-05 2.000000e-05 1.000000e-03 3.000000e-03 5.500000e-03
  28.00 1.013100 1.361284e+00 1.455861e+00 1.530966e+00   60.85   70.55   80.60 1.200000e-02 1.800000e-02 2.700000e-02 5.000000e-05 3.390000e-05 2.000000e-05 1.000000e-03 3.000000e-03 5.500000e-03
  29.00 1.012436 1.284418e+00 1.376179e+00 1.449724e+00   60.43   70.07   80.05 1.200000e-02 1.740000e-02 2.610000e-02 5.000000e-05 3.390000e-05 2.000000e-05 1.000000e-03 3.000000e-03 5.500000e-03
  30.00 1.011800 1.211988e+00 1.300786e+00 1.372629e+00   59.99   69.56   79.46 1.200000e-02 1.710000e-02 2.565000e-02 5.000000e-05 3.390000e-05 2.000000e-05 1.000000e-03 3.000000e-03 5.500000e-03
  31.00 1.011189 1.142003e+00 1.227762e+00 1.297781e+00   59.61   69.13   78.97 1.200000e-02 1.680000e-02 2.520000e-02 5.000000e-05 3.390000e-05 2.000000e-05 1.000000e-03 3.000000e-03 5.500000e-03
  32.00 1.010600 1.075809e+00 1.158518e+00 1.226653e+00   59.24   68.69   78.47 1.200000e-02 1.660000e-02 2.490000e-02 5.000000e-05 3.390000e-05 2.000000e-05 1.000000e-03 3.000000e-03 5.500000e-03
  33.00 1.010033 1.011269e+00 1.090827e+00 1.156934e+00   58.97   68.38   78.12 1.200000e-02 1.640000e-02 2.460000e-02 5.000000e-05 3.390000e-05 2.000000e-05 1.000000e-03 3.000000e-03 5.500000e-03
  34.00 1.009480 9.503072e-01 1.026729e+00 1.090772e+00   58.72   68.09   77.78 1.200000e-02 1.630000e-02 2.445000e-02 5.000000e-05 3.390000e-05 2.000000e-05 1.000000e-03 3.000000e-03 5.500000e-03
  35.00 1.008938 8.914251e-01 9.647944e-01 1.026756e+00   58.56   67.90   77.57 1.200000e-02 1.590000e-02 2.385000e-02 5.000000e-05 3.390000e-05 2.000000e-05 1.000000e-03 3.000000e-03 5.500000e-03
  36.00 1.008420 8.355468e-01 9.058488e-01 9.656761e-01   58.44   67.77   77.42 1.200000e-02 1.560000e-02 2.340000e-02 5.000000e-05 3.390000e-05 2.000000e-05 1.000000e-03 3.000000e-03 5.500000e-03
  37.00 1.007939 7.825652e-01 8.497689e-01 9.074025e-01   58.37   67.68   77.32 1.200000e-02 1.550000e-02 2.325000e-02 5.000000e-05 3.390000e-05 2.000000e-05 1.000000e-03 3.000000e-03 5.500000e-03
  38.00 1.007490 7.326772e-01 7.968696e-01 8.523327e-01   58.32   67.62   77.25 1.200000e-02 1.540000e-02 2.310000e-02 5.000000e-05 3.390000e-05 2.000000e-05 1.000000e-03 3.000000e-03 5.500000e-03
  39.00 1.007067 6.851448e-01 7.463928e-01 7.996871e-01   58.34   67.65   77.28 1.200000e-02 1.520000e-02 2.280000e-02 5.000000e-05 3.390000e-05 2.000000e-05 1.000000e-03 3.000000e-03 5.500000e-03
  40.00 1.006660 6.417564e-01 7.002653e-01 7.515265e-01   58.27   67.57   77.19 1.200000e-02 1.500000e-02 2.250000e-02 5.000000e-05 3.390000e-05 2.000000e-05 1.000000e-03 3.000000e-03 5.500000e-03
  41.00 1.006262 6.005709e-01 6.563617e-01 7.055752e-01   58.25   67.55   77.17 1.200000e-02 1.490000e-02 2.235000e-02 5.000000e-05 3.390000e-05 2.000000e-05 1.000000e-03 3.000000e-03 5.500000e-03
  42.00 1.005870 5.616917e-01 6.148391e-01 6.620311e-01   58.28   67.57   77.20 1.200000e-02 1.480000e-02 2.220000e-02 5.000000e-05 3.390000e-05 2.000000e-05 1.000000e-03 3.000000e-03 5.500000e-03
  43.00 1.005488 5.256616e-01 5.762807e-01 6.215229e-01   58.27   67.56   77.18 1.200000e-02 1.480000e-02 2.220000e-02 5.000000e-05 3.390000e-05 2.000000e-05 1.000000e-03 3.000000e-03 5.500000e-03
  44.00 1.005130 4.913754e-01 5.395162e-01 5.828176e-01   58.33   67.64   77.27 1.200000e-02 1.480000e-02 2.220000e-02 5.000000e-05 3.390000e-05 2.000000e-05 1.000000e-03 3.000000e-03 5.500000e-03
  45.00 1.004808 4.597165e-01 5.055255e-01 5.469843e-01   58.35   67.67   77.30 1.200000e-02 1.480000e-02 2.220000e-02 5.000000e-05 3.390000e-05 2.000000e-05 1.000000e-03 3.000000e-03 5.500000e-03
  46.00 1.004510 4.297422e-01 4.732839e-01 5.129274e-01   58.43   67.76   77.40 1.200000e-02 1.480000e-02 2.220000e-02 5.000000e-05 3.390000e-05 2.000000e-05 1.000000e-03 3.000000e-03 5.500000e-03
  47.00 1.004223 4.019734e-01 4.433741e-01 4.812883e-01   58.48   67.81   77.47 1.200000e-02 1.480000e-02 2.220000e-02 5.000000e-05 3.390000e-05 2.000000e-05 1.000000e-03 3.000000e-03 5.500000e-03
  48.00 1.003950 3.758157e-01 4.151508e-01 4.513779e-01   58.57   67.91   77.59 1.200000e-02 1.480000e-02 2.220000e-02 5.000000e-05 3.390000e-05 2.000000e-05 1.000000e-03 3.000000e-03 5.500000e-03
  49.00 1.003698 3.510874e-01 3.884204e-01 4.229934e-01   58.71   68.08   77.78 1.200000e-02 1.480000e-02 2.220000e-02 5.000000e-05 3.390000e-05 2.000000e-05 1.000000e-03 3.000000e-03 5.500000e-03
  50.00 1.003460 3.273098e-01 3.626596e-01 3.955718e-01   59.00   68.41   78.15 1.200000e-02 1.480000e-02 2.220000e-02 5.000000e-05 3.390000e-05 2.000000e-05 1.000000e-03 3.000000e-03 5.500000e-03
  51.00 1.003229 3.021684e-01 3.353012e-01 3.663091e-01   59.91   69.46   79.36 1.200000e-02 1.480000e-02 2.220000e-02 5.000000e-05 3.390000e-05 2.000000e-05 1.000000e-03 3.000000e-03 5.500000e-03
  52.00 1.003010 2.806307e-01 3.118585e-01 3.412298e-01   60.53   70.18   80.18 1.200000e-02 1.480000e-02 2.220000e-02 5.000000e-05 3.390000e-05 2.000000e-05 1.000000e-03 3.000000e-03 5.500000e-03
  53.00 1.002809 2.614089e-01 2.909198e-01 3.188107e-01   61.00   70.74   80.81 1.200000e-02 1.480000e-02 2.220000e-02 5.000000e-05 3.390000e-05 2.000000e-05 1.000000e-03 3.000000e-03 5.500000e-03
  54.00 1.002620 2.431949e-01 2.710391e-01 2.974783e-01   61.60   71.43   81.60 1.200000e-02 1.480000e-02 2.220000e-02 5.000000e-05 3.390000e-05 2.000000e-05 1.000000e-03 3.000000e-03 5.500000e-03
  55.00 1.002435 2.258123e-01 2.520240e-01 2.770263e-01   62.38   72.33   82.63 1.200000e-02 1.480000e-02 2.220000e-02 5.000000e-05 3.390000e-05 2.000000e-05 1.000000e-03 3.000000e-03 5.500000e-03
  56.00 1.002250 2.096076e-01 2.342663e-01 2.578908e-01   63.23   73.32   83.76 1.200000e-02 1.480000e-02 2.220000e-02 5.000000e-05 3.390000e-05 2.000000e-05 1.000000e-03 3.000000e-03 5.500000e-03
  57.00 1.002064 1.936470e-01 2.167263e-01 2.389314e-01   64.47   74.75   85.40 1.200000e-02 1.480000e-02 2.220000e-02 5.000000e-05 3.390000e-05 2.000000e-05 1.000000e-03 3.000000e-03 5.500000e-03
  58.00 1.001880 1.787871e-01 2.003652e-01 2.212106e-01   65.86   76.36   87.24 1.200000e-02 1.480000e-02 2.220000e-02 5.000000e-05 3.390000e-05 2.000000e-05 1.000000e-03 3.000000e-03 5.500000e-03
  59.00 1.001705 1.644870e-01 1.845818e-01 2.040704e-01   67.61   78.39   89.56 1.200000e-02 1.480000e-02 2.220000e-02 5.000000e-05 3.390000e-05 2.000000e-05 1.000000e-03 3.000000e-03 5.500000e-03
  60.00 1.001540 1.504875e-01 1.690875e-01 1.871938e-01   69.91   81.07   92.61 1.200000e-02 1.480000e-02 2.220000e-02 5.000000e-05 3.390000e-05 2.000000e-05 1.000000e-03 3.000000e-03 5.500000e-03
  61.00 1.001387 1.372322e-01 1.543835e-01 1.711385e-01   72.68   84.28   96.28 1.200000e-02 1.480000e-02 2.220000e-02 5.000000e-05 3.390000e-05 2.000000e-05 1.000000e-03 3.000000e-03 5.500000e-03
  62.00 1.001240 1.251751e-01 1.409857e-01 1.564828e-01   75.70   87.78  100.28 1.200000e-02 1.480000e-02 2.220000e-02 5.000000e-05 3.390000e-05 2.000000e-05 1.000000e-03 3.000000e-03 5.500000e-03
  63.00 1.001093 1.143453e-01 1.289337e-01 1.432782e-01   78.90   91.49  104.52 1.200000e-02 1.480000e-02 2.220000e-02 5.000000e-05 3.390000e-05 2.000000e-05 1.000000e-03 3.000000e-03 5.500000e-03
  64.00 1.000950 1.034751e-01 1.168029e-01 1.299472e-01   83.19   96.46  110.19 1.200000e-02 1.480000e-02 2.220000e-02 5.000000e-05 3.390000e-05 2.000000e-05 1.000000e-03 3.000000e-03 5.500000e-03
  65.00 1.000818 8.993002e-02 1.016146e-01 1.131696e-01   91.65  106.28  121.41 1.200000e-02 1.480000e-02 2.220000e-02 5.000000e-05 3.390000e-05 2.000000e-05 1.000000e-03 3.000000e-03 5.500000e-03
  66.00 1.000700 8.370079e-02 9.466418e-02 1.055333e-01   94.57  109.66  125.27 1.200000e-02 1.480000e-02 2.220000e-02 5.000000e-05 3.390000e-05 2.000000e-05 1.000000e-03 3.000000e-03 5.500000e-03
  67.00 1.000600 7.952297e-02 9.002151e-02 1.004553e-01   95.66  110.92  126.71 1.200000e-02 1.480000e-02 2.220000e-02 5.000000e-05 3.390000e-05 2.000000e-05 1.000000e-03 3.000000e-03 5.500000e-03
  68.00 1.000520 7.586767e-02 8.596145e-02 9.601708e-02   96.40  111.78  127.69 1.200000e-02 1.480000e-02 2.220000e-02 5.000000e-05 3.390000e-05 2.000000e-05 1.000000e-03 3.000000e-03 5.500000e-03
  69.00 1.000459 7.272188e-02 8.247134e-02 9.220690e-02   96.71  112.14  128.11 1.200000e-02 1.480000e-02 2.220000e-02 5.000000e-05 3.390000e-05 2.000000e-05 1.000000e-03 3.000000e-03 5.500000e-03
  70.00 1.000410 6.963348e-02 7.903973e-02 8.845446e-02   97.14  112.64  128.68 1.200000e-02 1.480000e-02 2.220000e-02 5.000000e-05 3.390000e-05 2.000000e-05 1.000000e-03 3.000000e-03 5.500000e-03
  71.00 1.000368 6.642611e-02 7.546621e-02 8.453520e-02   97.97  113.60  129.78 1.200000e-02 1.480000e-02 2.220000e-02 5.000000e-05 3.390000e-05 2.000000e-05 1.000000e-03 3.000000e-03 5.500000e-03
  72.00 1.000330 6.352630e-02 7.223547e-02 8.099214e-02   98.59  114.32  130.60 1.200000e-02 1.480000e-02 2.220000e-02 5.000000e-05 3.390000e-05 2.000000e-05 1.000000e-03 3.000000e-03 5.500000e-03
  73.00 1.000297 6.066288e-02 6.903993e-02 7.748131e-02   99.39  115.25  131.66 1.200000e-02 1.480000e-02 2.220000e-02 5.000000e-05 3.390000e-05 2.000000e-05 1.000000e-03 3.000000e-03 5.500000e-03
  74.00 1.000270 5.783587e-02 6.587958e-02 7.400271e-02  100.40  116.42  133.00 1.200000e-02 1.480000e-02 2.220000e-02 5.000000e-05 3.390000e-05 2.000000e-05 1.000000e-03 3.000000e-03 5.500000e-03
  75.00 1.000248 5.546259e-02 6.323057e-02 7.109202e-02  100.86  116.95  133.60 1.200000e-02 1.480000e-02 2.220000e-02 5.000000e-05 3.390000e-05 2.000000e-05 1.000000e-03 3.000000e-03 5.500000e-03
  76.00 1.000230 5.285278e-02 6.030666e-02 6.786607e-02  101.99  118.26  135.10 1.200000e-02 1.480000e-02 2.220000e-02 5.000000e-05 3.390000e-05 2.000000e-05 1.000000e-03 3.000000e-03 5.500000e-03
  77.00 1.000213 5.026534e-02 5.740260e-02 6.465580e-02  103.39  119.88  136.96 1.200000e-02 1.480000e-02 2.220000e-02 5.000000e-05 3.390000e-05 2.000000e-05 1.000000e-03 3.000000e-03 5.500000e-03
  78.00 1.000200 4.768518e-02 5.450117e-02 6.144179e-02  105.13  121.91  139.27 1.200000e-02 1.480000e-02 2.220000e-02 5.000000e-05 3.390000e-05 2.000000e-05 1.000000e-03 3.000000e-03 5.500000e-03
  79.00 1.000191 4.573063e-02 5.230998e-02 5.902281e-02  105.80  122.68  140.15 1.200000e-02 1.480000e-02 2.220000e-02 5.000000e-05 3.390000e-05 2.000000e-05 1.000000e-03 3.000000e-03 5.500000e-03
  80.00 1.000180 4.392654e-02 5.028718e-02 5.678948e-02  106.33  123.29  140.85 1.200000e-02 1.480000e-02 2.220000e-02 5.000000e-05 3.390000e-05 2.000000e-05 1.000000e-03 3.000000e-03 5.500000e-03
  81.00 1.000164 4.212295e-02 4.826137e-02 5.454852e-02  107.06  124.14  141.82 1.200000e-02 1.480000e-02 2.220000e-02 5.000000e-05 3.390000e-05 2.000000e-05 1.000000e-03 3.000000e-03 5.500000e-03
  82.00 1.000150 4.037893e-02 4.630027e-02 5.237652e-02  107.86  125.07  142.88 1.200000e-02 1.480000e-02 2.220000e-02 5.000000e-05 3.390000e-05 2.000000e-05 1.000000e-03 3.000000e-03 5.500000e-03
  83.00 1.000144 3.861193e-02 4.430927e-02 5.016650e-02  108.98  126.37  144.36 1.200000e-02 1.480000e-02 2.220000e-02 5.000000e-05 3.390000e-05 2.000000e-05 1.000000e-03 3.000000e-03 5.500000e-03
  84.00 1.000140 3.713372e-02 4.264647e-02 4.832428e-02  109.51  126.99  145.07 1.200000e-02 1.480000e-02 2.220000e-02 5.000000e-05 3.390000e-05 2.000000e-05 1.000000e-03 3.000000e-03 5.500000e-03
  85.00 1.000131 3.565967e-02 4.098561e-02 4.648090e-02  110.23  127.82  146.02 1.200000e-02 1.480000e-02 2.220000e-02 5.000000e-05 3.390000e-05 2.000000e-05 1.000000e-03 3.000000e-03 5.500000e-03
  86.00 1.000120 3.418131e-02 3.931691e-02 4.462521e-02  111.19  128.94  147.30 1.200000e-02 1.480000e-02 2.220000e-02 5.000000e-05 3.390000e-05 2.000000e-05 1.000000e-03 3.000000e-03 5.500000e-03
  87.00 1.000114 3.287779e-02 3.784663e-02 4.299155e-02  111.81  129.64  148.11 1.200000e-02 1.480000e-02 2.220000e-02 5.000000e-05 3.390000e-05 2.000000e-05 1.000000e-03 3.000000e-03 5.500000e-03
  88.00 1.000110 3.158472e-02 3.638590e-02 4.136580e-02  112.59  130.55  149.14 1.200000e-02 1.480000e-02 2.220000e-02 5.000000e-05 3.390000e-05 2.000000e-05 1.000000e-03 3.000000e-03 5.500000e-03
  89.00 1.000105 3.047701e-02 3.513648e-02 3.997763e-02  112.89  130.91  149.55 1.200000e-02 1.480000e-02 2.220000e-02 5.000000e-05 3.390000e-05 2.000000e-05 1.000000e-03 3.000000e-03 5.500000e-03
  90.00 1.000100 2.932737e-02 3.383664e-02 3.852963e-02  113.53  131.64  150.39 1.200000e-02 1.480000e-02 2.220000e-02 5.000000e-05 3.390000e-05 2.000000e-05 1.000000e-03 3.000000e-03 5.500000e-03
  91.00 1.000095 2.826061e-02 3.263036e-02 3.718572e-02  114.03  132.23  151.06 1.200000e-02 1.480000e-02 2.220000e-02 5.000000e-05 3.390000e-05 2.000000e-05 1.000000e-03 3.000000e-03 5.500000e-03
  92.00 1.000090 2.725264e-02 3.149007e-02 3.591477e-02  114.47  132.74  151.64 1.200000e-02 1.480000e-02 2.220000e-02 5.000000e-05 3.390000e-05 2.000000e-05 1.000000e-03 3.000000e-03 5.500000e-03
  93.00 1.000084 2.627065e-02 3.037797e-02 3.467382e-02  114.98  133.32  152.31 1.200000e-02 1.480000e-02 2.220000e-02 5.000000e-05 3.390000e-05 2.000000e-05 1.000000e-03 3.000000e-03 5.500000e-03
  94.00 1.000080 2.531383e-02 2.929323e-02 3.346199e-02  115.55  133.98  153.06 1.200000e-02 1.480000e-02 2.220000e-02 5.000000e-05 3.390000e-05 2.000000e-05 1.000000e-03 3.000000e-03 5.500000e-03
  95.00 1.000080 2.438019e-02 2.823357e-02 3.227675e-02  116.20  134.74  153.93 1.200000e-02 1.480000e-02 2.220000e-02 5.000000e-05 3.390000e-05 2.000000e-05 1.000000e-03 3.000000e-03 5.500000e-03
  96.00 1.000080 2.354708e-02 2.728873e-02 3.122089e-02  116.55  135.14  154.39 1.200000e-02 1.480000e-02 2.220000e-02 5.000000e-05 3.390000e-05 2.000000e-05 1.000000e-03 3.000000e-03 5.500000e-03
  97.00 1.000076 2.271169e-02 2.633979e-02 3.015856e-02  117.07  135.75  155.08 1.200000e-02 1.480000e-02 2.220000e-02 5.000000e-05 3.390000e-05 2.000000e-05 1.000000e-03 3.000000e-03 5.500000e-03
  98.00 1.000070 2.191113e-02 2.542976e-02 2.913901e-02  117.59  136.35  155.77 1.200000e-02 1.480000e-02 2.220000e-02 5.000000e-05 3.390000e-05 2.000000e-05 1.000000e-03 3.000000e-03 5.500000e-03
  99.00 1.000064 2.116261e-02 2.457877e-02 2.818550e-02  117.99  136.82  156.30 1.200000e-02 1.480000e-02 2.220000e-02 5.000000e-05 3.390000e-05 2.000000e-05 1.000000e-03 3.000000e-03 5.500000e-03
